time,angle,ctrl_BIClong,ctrl_BICshort,ctrl_BRA,ctrl_TRIlong,ctrl_TRIlat,ctrl_TRImed,tau_id,sim_angle_deg,sim_vel_deg_s,sim_acc_deg_s2,used_angle_deg,used_vel_deg_s,used_acc_deg_s2
0.0,87.673455,0.21716945,0.4030335,0.008555009,1.1176649e-06,1.2518783e-06,1.3229518e-06,-9.410112,89.16953,179.03477,-5155.953,87.37918412038782,227.99385177844906,-98.79522838044703
0.01,88.79139,0.10986871,0.19860603,0.0045314874,0.0,0.0,0.0,-9.579388,90.617714,144.81812,-3603.408,89.65456494059616,226.9442545069247,-128.50137396729642
0.02,92.339035,0.11187962,0.20345825,0.0045404555,8.511657e-08,9.1825804e-08,9.630787e-08,-9.741363,91.77567,115.7957,-3056.3943,91.91908610116971,225.55181710328287,-159.9957692248087
0.03,94.60978,0.13507935,0.24686712,0.005417183,3.425474e-08,3.629352e-08,3.7960945e-08,-9.895703,92.68577,91.0101,-2610.2087,94.16871593708836,223.80810791958825,-193.1896139852306
0.04,95.71073,0.1703037,0.31347555,0.0067109624,3.1969544e-14,3.3239253e-14,3.4653487e-14,-10.042139,93.398766,71.299545,-2075.7488,96.39942278333206,221.70469530790544,-227.99410808080899
0.05,98.994275,0.2198023,0.40633765,0.008433768,1.0587364e-11,1.0810361e-11,1.1234906e-11,-10.180461,93.9807,58.192795,-1380.2914,98.60717497488069,219.23314762029904,-264.3204513437906
0.06,100.10176,0.28689894,0.53155196,0.010621046,8.369375e-11,8.400896e-11,8.704145e-11,-10.310524,94.51918,53.84837,-457.51776,100.78794084671418,216.38503320883373,-302.07984360642206
0.07,103.2293875,0.37645388,0.69837916,0.013335517,2.8732183e-10,2.8386632e-10,2.932417e-10,-10.432245,95.12937,61.01916,755.1669,102.93768873381245,213.1519204255741,-341.1834847009523
0.08,105.27365,0.49025628,0.914083,0.016501661,5.199914e-10,5.062786e-10,5.2149834e-10,-10.545607,95.95827,82.89009,2303.2605,105.05238697115539,209.5253776225848,-381.81220637746816
0.09,107.28577999999999,0.6908279,0.9999983,0.022195866,9.936388e-08,9.544097e-08,9.8036956e-08,-10.650648,97.17961,122.13428,4132.864,107.12800389372293,205.49697315193046,-423.1217485969079
0.1,109.31194500000001,0.9246221,0.999999,0.028217817,4.993687e-08,4.735647e-08,4.8513886e-08,-10.747469,98.95185,177.22343,5801.522,109.160507836495,201.0582753656757,-465.76919561425717
0.11,111.3258175,1.0,0.9999604,0.037338708,1.3076087e-06,1.2250557e-06,1.2516892e-06,-10.836223,101.37419,242.23438,6846.4004,111.14586713445149,196.20085261588514,-509.31413789072326
0.12,113.28205500000001,0.99999994,1.0,0.0427074,4.4484496e-09,4.3178954e-09,4.3496615e-09,-10.917115,104.39565,302.14618,6309.402,113.08005012257232,190.91627325462304,-554.0953420557796
0.13,115.1404225,1.0,1.0,0.0383202,0.0,0.0,0.0,-10.9904,107.84961,345.39572,4554.674,114.95902513583741,185.16204201661031,-600.0097367924125
0.14,116.906845,0.96410257,0.99999976,0.030079076,0.00082662195,0.0008406815,0.00083871774,-11.056374,111.53485,368.52417,2435.6912,116.77876050922669,178.96903720693558,-647.3902465835768
0.15,118.58706000000001,0.90883297,0.8654709,0.02787731,0.002692641,0.0025198176,0.0025385444,-11.115368,115.25079,371.59436,323.32663,118.53522457772002,172.19796195160228,-696.3106969199644
0.16,120.21312,0.88888466,0.8107482,0.027557133,0.0031283642,0.0029018773,0.002921907,-11.167751,118.81908,356.82825,-1555.0433,120.22438567629737,164.96860386274287,-745.8402332701417
0.17,121.79359,0.8922192,0.81708574,0.028139122,0.0026411999,0.002463309,0.002477455,-11.2140875,122.11324,329.41663,-2886.757,121.84221213993862,157.3364376708945,-795.0866981482588
0.18,123.314415,0.91435295,0.8782267,0.029225571,0.0014272344,0.0013849864,0.0013913244,-11.255121,125.05172,293.8473,-3745.8591,123.38467230362372,149.17774564032877,-843.4597813656167
0.19,124.06231,0.9540703,0.99352366,0.030660775,3.977405e-10,1.6330043e-09,1.6379043e-09,-11.291213,127.586334,253.46184,-4253.054,124.84773450232895,140.51977809952393,-890.1491989208473
0.2,126.14746099999999,1.0,0.9999987,0.038475577,1.537888e-08,1.3916627e-08,1.3970356e-08,-11.322832,129.69266,210.63174,-4510.5015,126.23240649601587,131.39097438959476,-933.5448236726711
0.21,126.810196,0.99999976,0.99999946,0.053003773,7.969849e-08,7.036001e-08,7.0555e-08,-11.349101,131.35927,166.6619,-4630.5303,127.47488828256316,121.76179113602369,-972.6139559316714
0.22,128.63965000000002,1.0,1.0,0.074537545,1.1903594e-12,1.0399398e-12,1.0419241e-12,-11.372418,131.09856,-26.071838,-20297.078,128.6660884403898,111.79596379035664,-1007.8311886222981
0.23,129.82774999999998,1.0,1.0,0.1130993,8.8461335e-11,7.619365e-11,7.628869e-11,-11.3922205,130.53323,-56.531425,-3207.7446,129.75989730695335,101.5130279044691,-1039.4519038591059
0.24,130.89627000000002,1.0,1.0,0.15787005,2.9966582e-10,2.5460237e-10,2.5479274e-10,-11.408054,129.70679,-82.645836,-2750.148,130.7027163381637,90.93608292971776,-1067.6627557454165
0.25,131.810305,1.0,1.0,0.21005721,5.4386573e-10,4.5610404e-10,4.5626e-10,-11.421698,128.67238,-103.440704,-2189.9387,131.57576033742842,80.09679700998345,-1092.7822308695827
0.26,132.63034,1.0,1.0,0.26639268,6.899647e-10,5.7250055e-10,5.725288e-10,-11.432178,127.49351,-117.8865,-1521.3077,132.2932142075415,69.10744393284516,-1114.1127767010003
0.27,133.376275,1.0,0.99999994,0.3293668,8.5671364e-10,7.045443e-10,7.0441736e-10,-11.440947,126.24334,-125.017166,-750.94183,132.93152815625098,58.00614536323069,-1132.0528819878023
0.28,134.00866,1.0,0.99999994,0.398367,9.783563e-10,7.99098e-10,7.988212e-10,-11.44773,125.00313,-124.020645,104.94542,133.4535046777255,46.66527708424154,-1146.379100564684
0.29,134.487035,1.0,0.99999994,0.4733223,1.078654e-09,8.767269e-10,8.763218e-10,-11.452754,123.85883,-114.42982,1010.02435,133.8585511870303,35.15873546268095,-1156.168902960916
0.3,134.79500000000002,1.0,0.99999994,0.5524899,1.1221243e-09,9.093632e-10,9.088805e-10,-11.455897,122.895584,-96.32509,1906.6357,134.1210086640852,23.468740331606387,-1162.8212521911316
0.31,134.89355,0.99999994,0.9999999,0.6356831,1.1581086e-09,9.368312e-10,9.362915e-10,-11.458052,122.19025,-70.533356,2716.1665,134.30523894046573,11.645581849463968,-1166.4907106919125
0.32,134.83123999999998,0.99999994,0.9999999,0.71759605,1.0552047e-09,8.53217e-10,8.527174e-10,-11.458519,121.80364,-38.660645,3356.5632,134.3457153799718,-0.04571429194098811,-1166.642455089532
0.33,134.70144,1.0,0.99999994,0.7954995,8.9925173e-10,7.272905e-10,7.2687123e-10,-11.458086,121.77293,-3.0717444,3747.9204,134.30823533864532,-11.633670178986598,-1162.405341559316
0.34,134.452485,1.0,0.99999994,0.8633909,6.38324e-10,5.1682064e-10,5.165425e-10,-11.456278,122.10729,33.436466,3844.7344,134.153294162995,-23.184011637743104,-1151.9180650659007
0.35000000000000003,134.07587,1.0,1.0,0.916749,3.579838e-10,2.9041455e-10,2.902789e-10,-11.453032,122.787796,68.05084,3645.292,133.88142114413188,-34.44921798890075,-1134.6894406328342
0.36,133.54782999999998,1.0,1.0,0.9526584,1.3633708e-10,1.1094119e-10,1.1090157e-10,-11.448253,123.771416,98.36203,3192.117,133.49487779414963,-45.72003391859898,-1110.9724985130238
0.37,132.89875,1.0,1.0,0.9701474,2.0815023e-11,1.7013535e-11,1.701014e-11,-11.4418,124.996994,122.55732,2548.0415,132.9957171829991,-56.88459838329223,-1081.888539345472
0.38,132.21353,1.0,1.0,0.9699313,0.0,0.0,0.0,-11.433483,126.39237,139.538,1788.2609,132.38594079589907,-67.64281585084805,-1048.9301612125187
0.39,131.45785,1.0,1.0,0.95299333,0.0,0.00013632963,0.00013609295,-11.422622,127.88133,148.89574,985.47736,131.6372645745107,-78.08846634587479,-1012.4913771036288
0.4,130.60129,0.42639095,3.8087933e-06,0.94405305,0.0158064,0.013441761,0.013450737,-11.409146,129.3891,150.77779,198.2017,130.7703942995247,-88.02412315049384,-972.6604863494754
0.41000000000000003,129.64269000000002,0.0,3.341325e-05,0.9366437,0.029060569,0.024938421,0.024966031,-11.393306,130.77376,138.46445,-1296.7355,129.82244246295457,-97.48840018487343,-930.7239446245999
0.42,128.59662,3.353563e-07,1.1280513e-06,0.9244852,0.055799443,0.048625413,0.04870642,-11.37416,130.64867,-12.508207,-15899.157,128.75897255625614,-106.43933720522006,-886.9259629121618
0.43,127.473623,4.5190433e-07,1.4631803e-06,0.9153209,0.070178226,0.061819065,0.06195498,-11.352728,130.36728,-28.139647,-1646.1703,127.65423036468376,-115.00992547163425,-842.3677741734491
0.44,126.284033,1.0287741e-06,3.2194566e-06,0.9052003,0.08804515,0.07835697,0.07857694,-11.327836,129.9077,-45.9569,-1876.3618,126.46201597596111,-123.21040180908163,-799.7166776419785
0.45,125.0256675,1.3177676e-06,4.005554e-06,0.8945438,0.107796855,0.09688162,0.097220734,-11.299145,129.25543,-65.22732,-2029.3964,125.18510242822016,-131.04983205855504,-760.1927649463677
0.46,123.6967425,1.7258963e-06,5.11105e-06,0.8833497,0.1296167,0.11761841,0.11812527,-11.265288,128.39987,-85.55598,-2140.8418,123.78569790436238,-138.582657019744,-725.429887371396
0.47000000000000003,122.28804,1.7451641e-06,5.051938e-06,0.8724254,0.15050688,0.13769902,0.13840969,-11.228398,127.33278,-106.70905,-2227.6624,122.36725850980838,-145.7304664467303,-696.6814040031506
0.48,120.78595999999999,1.9528115e-06,5.5351966e-06,0.861397,0.17258474,0.1591273,0.1601028,-11.1856165,126.04919,-128.35971,-2280.0632,120.8340599501512,-152.5515135290697,-674.153048790124
0.49,120.00845,1.7277323e-06,4.8091797e-06,0.8511298,0.19237217,0.17844473,0.17970908,-11.140212,124.54704,-150.2141,-2301.5178,119.31921969458612,-159.0910025110847,-657.4886653062813
0.5,117.514212,1.7120814e-06,4.6870314e-06,0.84120363,0.21222603,0.19795458,0.19955218,-11.088417,122.82928,-171.7763,-2270.749,117.71574773119687,-165.41104072498518,-646.1342299146181
0.51,116.652214,1.5801818e-06,4.2617944e-06,0.8318462,0.23120134,0.21670832,0.21867158,-11.030625,120.90374,-192.55418,-2188.149,116.05222762914836,-171.70662789517604,-641.1787937797073
0.52,113.98514,1.362377e-06,3.625446e-06,0.8232299,0.24869925,0.23409623,0.23644592,-10.966514,118.78363,-212.01073,-2048.9983,114.33163936762516,-178.1464668954268,-643.9044732173173
0.53,112.14954,1.087674e-06,2.8593552e-06,0.81549454,0.26428223,0.24967428,0.25241876,-10.895184,116.488045,-229.55846,-1847.9769,112.5423935771734,-184.67009945016997,-654.0668830063993
0.54,110.237995,8.102607e-07,2.1062563e-06,0.8086922,0.27785248,0.26333258,0.2664697,-10.815973,114.04226,-244.57854,-1581.7875,110.68130789609744,-191.34538430815874,-670.197744252233
0.55,108.2471025,6.2070734e-07,1.5960915e-06,0.80252326,0.2905816,0.27628496,0.27983245,-10.725657,111.47656,-256.56964,-1262.8008,108.6914340367851,-198.10743986462694,-688.9886747163597
0.56,106.2093275,3.158511e-07,8.006319e-07,0.79756886,0.30011544,0.2860466,0.289954,-10.629158,108.82179,-265.47678,-938.0248,106.69320054089245,-204.97992036472073,-707.5043736507647
0.5700000000000001,104.13528,2.0035908e-07,4.9611504e-07,0.79316133,0.30904466,0.2953178,0.29959086,-10.520153,106.109314,-271.24805,-607.7807,104.56705499464738,-212.018655036812,-723.7400616552134
0.58,102.02551199999999,7.204956e-08,1.7310968e-07,0.7897693,0.3154477,0.30203196,0.30661124,-10.404173,103.36851,-274.08105,-298.3491,102.43156132827659,-219.3999762749582,-735.4639719798255
0.59,100.963554,2.4498483e-08,5.675562e-08,0.78692967,0.320969,0.30790594,0.31277144,-10.27734,100.62676,-274.17395,-9.781698,100.22091572782533,-226.94751268253535,-741.956126423746
0.6,97.641485,6.5251996e-08,1.4497817e-07,0.7844197,0.32605678,0.3134002,0.31854352,-10.139143,97.908066,-271.8703,242.6002,97.93649245940595,-234.5160482951232,-743.4892384289466
0.61,96.50678,4.2415554e-08,9.0185715e-08,0.78202087,0.33138713,0.3192436,0.32469106,-9.988881,95.23177,-267.62863,446.69583,95.57632971945876,-242.04002987059977,-739.8321907658211
0.62,93.03032999999999,4.4872756e-08,9.172696e-08,0.7795027,0.33743164,0.32597098,0.33177692,-9.825714,92.61171,-262.0068,592.04333,93.13658430548388,-249.32524850877135,-729.975104699728
0.63,90.64982,7.578238e-08,1.4954645e-07,0.77671516,0.34455723,0.33402994,0.34028277,-9.649117,90.05544,-255.62627,671.94403,90.61823995529886,-256.50982624860086,-712.3033311876925
0.64,88.20764,3.74616e-08,7.160605e-08,0.7736078,0.35301837,0.34377092,0.3505962,-9.4587755,87.56413,-249.13109,684.0183,88.02451196498406,-263.4152706234395,-684.0037386151564
0.65,86.97026,5.5578276e-08,1.03174706e-07,0.7702047,0.3628278,0.35528785,0.36283833,-9.25447,85.13264,-243.15001,629.87573,85.35888496921818,-269.9549757964576,-645.0731429986414
0.66,83.137025,1.12270044e-07,2.0280254e-07,0.7665788,0.37379208,0.36843738,0.37687865,-9.035978,82.750084,-238.25475,515.5282,82.62375928895358,-276.1753180361672,-596.5881793909257
0.67,81.8419,1.70352e-07,2.9980214e-07,0.7628607,0.38565466,0.38299593,0.39250207,-8.803191,80.400856,-234.923,350.86984,79.8219126457307,-282.03554286189893,-537.3612531963463
0.68,76.99515500000001,2.1137694e-07,3.62657e-07,0.759206,0.39798003,0.39850214,0.40923557,-8.556286,78.065674,-233.51811,147.95134,76.95841615757095,-287.25726475992656,-466.8355487316252
0.6900000000000001,74.6804125,1.9696122e-07,3.295715e-07,0.7558751,0.40975782,0.41371664,0.42576146,-8.299078,75.72298,-234.2698,-79.16169,74.07711459312198,-291.69915244524964,-382.7080505948576
0.7000000000000001,71.56360000000001,1.6501106e-07,2.6919076e-07,0.7528811,0.4210237,0.42868525,0.44212782,-8.028882,73.35083,-237.2148,-310.14246,71.1255325751463,-295.1103584228572,-284.6961188577354
0.71,68.21776299999999,1.699658e-08,2.7035039e-08,0.7516035,0.4261718,0.43599764,0.45030063,-7.80847,70.92796,-242.28687,-534.14624,68.18033026367637,-297.3226462959783,-174.5649129343442
0.72,65.13017099999999,1.9536234e-08,3.0348605e-08,0.7507939,0.42976472,0.44133186,0.45632735,-7.523053,68.437935,-249.00256,-707.24054,65.18415565577118,-298.5300382233206,-52.79900154489642
0.73,62.085353999999995,1.7817288e-07,2.6988224e-07,0.7504014,0.43157914,0.44424334,0.45969296,-7.169371,65.852135,-258.58026,-1008.6422,62.17801015224709,-298.48686240368426,78.05225194402446
0.74,60.684002,0.0,0.0,0.75042564,0.43128073,0.4441242,0.45970005,-6.7582965,63.149837,-270.22934,-1226.7817,59.17430945742948,-297.153689027543,212.88369633833014
0.75,56.102270000000004,0.0,0.0,0.7508525,0.4284576,0.44011232,0.45530945,-6.3018227,60.31817,-283.16702,-1362.4851,56.185945230716925,-294.41241938057135,347.5542449126681
0.76,54.57088,0.016125102,0.02289286,0.75114006,0.42648107,0.43710226,0.4519335,-5.812656,57.351776,-296.63922,-1418.7798,53.227037697427626,-290.17149999075167,479.6120062561919
0.77,50.019627,0.0314751,0.04448578,0.75144124,0.4243252,0.43363672,0.44797307,-5.303587,54.260193,-309.1582,-1318.3928,50.3122176690189,-284.6770039637289,606.8619360174051
0.78,47.026748999999995,0.047754172,0.066772155,0.7517939,0.42170194,0.42924574,0.44288307,-4.7867594,51.061916,-319.82782,-1123.6321,47.45543783549127,-277.87991533959075,728.5471920578465
0.79,44.032944,0.06618011,0.09153974,0.7522107,0.41851544,0.4237271,0.43640238,-4.2819824,47.781036,-328.08807,-869.90106,44.71738637220348,-269.8966748418005,841.7822717546348
0.8,41.1377795,0.044539817,0.061806034,0.75206125,0.42010555,0.4262917,0.43929157,-3.776707,44.44557,-333.54617,-574.79926,42.02564157518515,-260.8966827489401,943.1591229329151
0.81,38.443884,0.047671847,0.06596048,0.7521683,0.4194404,0.42504486,0.4377752,-3.2922938,41.056587,-338.89877,-563.6891,39.478403304585356,-251.07213576147853,1030.9855253403505
0.8200000000000001,35.880018,0.057122875,0.0783971,0.7523866,0.41802838,0.42238376,0.4345363,-2.8211234,37.667595,-338.89893,-0.017933967,36.99691959630492,-240.41547192537044,1103.6734841576254
0.8300000000000001,33.430645,0.071545534,0.0971124,0.7527291,0.41595432,0.41835958,0.4295691,-2.377417,34.332916,-333.468,571.9414,34.628146928590354,-229.06322673731802,1160.3743291710166
0.84,31.1179085,0.08888724,0.11926004,0.75318235,0.4134537,0.4133408,0.42326432,-1.9657878,31.107656,-322.52597,1152.3195,32.37875612584209,-217.17413644964287,1200.0700652097935
0.85,29.0073105,0.11089186,0.14692716,0.75379455,0.41035184,0.4069333,0.415089,-1.5979637,28.045422,-306.22345,1716.8417,30.308860050592408,-204.8680333700591,1222.7318938479443
0.86,27.126021,0.1290849,0.16949393,0.75442106,0.40753692,0.40087855,0.40721688,-1.2573599,25.197409,-284.8014,2255.9897,28.32410249372415,-192.43930041781306,1229.064099803572
0.87,25.4394255,0.14739682,0.19207074,0.7551046,0.40470278,0.39459816,0.39896145,-0.9609307,22.606213,-259.1196,2704.5881,26.527594257077986,-180.05593578491826,1219.8277869427627
0.88,23.889265,0.15460916,0.20130013,0.75558555,0.4030102,0.39061716,0.3936144,-0.6849245,20.30535,-230.08632,3057.5386,24.78170949313858,-167.90913044887682,1194.8316928326751
0.89,22.435291,0.15902358,0.20716597,0.7559655,0.4017674,0.38758677,0.3895084,-0.44259578,18.313484,-199.18648,3254.1082,23.17680480301896,-156.16551447074065,1153.8396275681837
0.9,21.093076,0.15828829,0.2069935,0.7561567,0.40130132,0.3863358,0.38776588,-0.22735693,16.636868,-167.66174,3319.9177,21.682171540823884,-144.9582388519379,1099.4886902263484
0.91,19.9049725,0.15176149,0.1999615,0.75612384,0.4016725,0.38713524,0.38878733,-0.035457708,15.270259,-136.6608,3264.7556,20.283258660987705,-134.23158568395377,1035.2978962701768
0.92,18.8615425,0.14066042,0.18726292,0.7558658,0.40284932,0.39003566,0.3926682,0.13435538,14.198178,-107.208084,3101.71,18.982803432959248,-124.15476605360172,965.0597646281556
0.93,17.91005,0.12537259,0.16934115,0.75538313,0.4048355,0.3951597,0.39958882,0.28440323,13.396823,-80.1355,2851.0547,17.7755727231398,-114.79557006031379,892.3596333573555
0.9400000000000001,17.02227,0.10991343,0.1508495,0.754798,0.40714502,0.40130714,0.40793478,0.40892437,12.835769,-56.105427,2530.6428,16.724981135441435,-106.19097153217709,818.360756645638
0.9500000000000001,16.18265275,0.08745254,0.12385949,0.75392383,0.410659,0.410895,0.42099175,0.52512974,12.481177,-35.459198,2174.285,15.697994698546784,-98.51104112965558,744.2167176171829
0.96,15.37218025,0.06624153,0.09789005,0.7529998,0.41436806,0.42124578,0.4351289,0.6204615,12.294362,-18.681522,1766.8823,14.816738526522064,-91.64772819975164,671.6507099538268
0.97,14.5905865,0.039622396,0.06525121,0.75184363,0.41920286,0.43502304,0.45398393,0.7105269,12.235186,-5.9175806,1344.1898,13.947315180685166,-85.35927307447177,601.3643269217594
0.98,13.8328165,0.011906921,0.030860703,0.7505851,0.42462924,0.45081416,0.47564375,0.79076254,12.260806,2.5620267,893.0002,13.138390696046987,-79.69293130636335,533.9990683096006
0.99,13.0731445,1.1221828e-09,0.0,0.749125,0.43120015,0.4702961,0.5024095,0.86321634,12.327269,6.6462245,430.113,12.37625610080843,-74.57069311359368,471.2930350809554
1.0,12.3081645,1.7142182e-10,2.072253e-10,0.74734336,0.43957016,0.49552628,0.5371114,0.9289836,12.3930235,6.5755186,-7.446161,11.655001624227648,-70.03136813603695,414.9897209708762
1.01,11.555756,1.6069279e-09,1.9632007e-09,0.7454276,0.4487982,0.52385336,0.57617223,0.98867637,12.421939,2.8914952,-387.97003,10.973001110982903,-66.16770463437578,365.92557209711117
1.02,10.814900000000002,1.6675691e-09,2.0525497e-09,0.7434897,0.4582928,0.5535581,0.6172918,1.0431478,12.381836,-4.0102363,-726.83167,10.325121194492885,-62.72097555355184,324.6818779155185
1.03,10.081596000000001,1.2845103e-09,1.5893202e-09,0.7416237,0.46751323,0.5830025,0.6582706,1.0931273,12.24477,-13.706605,-1021.13916,9.706661508843087,-59.7137945602944,290.7321225299502
1.04,9.369145,6.905025e-10,8.5738316e-10,0.73991424,0.47594446,0.61054265,0.69686204,1.1391227,11.98807,-25.670036,-1259.887,9.114826004517765,-57.09082182972587,264.56332415273596
1.05,8.689069,2.284258e-10,2.842722e-10,0.7384324,0.4831489,0.6346847,0.7309683,1.1816678,11.595663,-39.240677,-1429.1445,8.545827073966594,-54.76037043306715,247.00280139266897
1.06,8.03339015,2.880266e-11,3.5889444e-11,0.7372635,0.48863244,0.6536588,0.75805867,1.2204604,11.0592575,-53.640503,-1516.467,8.006941550129076,-52.394501432237604,237.5054526444976
